 Input electron beam energy in GeV.
  Electron beam energy:   10.618 GeV

  Th_e       Q^2       E_e     Th_p        P_p        Mott   Sig_p (fm^2/sr)
  7.000     1.550     9.792   -53.009     1.494    0.330E-03    0.981E-05
  7.050     1.570     9.781   -52.812     1.507    0.320E-03    0.925E-05
  7.100     1.591     9.770   -52.617     1.520    0.311E-03    0.872E-05
  7.150     1.612     9.759   -52.422     1.533    0.303E-03    0.823E-05
  7.200     1.632     9.748   -52.228     1.546    0.294E-03    0.776E-05
  7.250     1.653     9.737   -52.036     1.559    0.286E-03    0.732E-05
  7.300     1.674     9.726   -51.844     1.572    0.279E-03    0.692E-05
  7.350     1.695     9.715   -51.653     1.585    0.271E-03    0.653E-05
  7.400     1.716     9.703   -51.464     1.598    0.264E-03    0.617E-05
  7.450     1.737     9.692   -51.275     1.611    0.257E-03    0.583E-05
  7.500     1.759     9.681   -51.087     1.624    0.250E-03    0.551E-05
  7.550     1.780     9.669   -50.900     1.637    0.244E-03    0.521E-05
  7.600     1.802     9.658   -50.715     1.650    0.237E-03    0.492E-05
  7.650     1.823     9.646   -50.530     1.663    0.231E-03    0.466E-05
  7.700     1.845     9.635   -50.346     1.677    0.225E-03    0.441E-05
  7.750     1.867     9.623   -50.163     1.690    0.219E-03    0.417E-05
  7.800     1.888     9.612   -49.981     1.703    0.214E-03    0.395E-05
  7.850     1.910     9.600   -49.800     1.717    0.208E-03    0.374E-05
  7.900     1.932     9.588   -49.620     1.730    0.203E-03    0.354E-05
  7.950     1.955     9.576   -49.441     1.743    0.198E-03    0.335E-05
  8.000     1.977     9.565   -49.263     1.757    0.193E-03    0.318E-05
  8.050     1.999     9.553   -49.086     1.770    0.188E-03    0.301E-05
  8.100     2.021     9.541   -48.910     1.784    0.184E-03    0.286E-05
  8.150     2.044     9.529   -48.734     1.797    0.179E-03    0.271E-05
  8.200     2.066     9.517   -48.560     1.811    0.175E-03    0.257E-05
  8.250     2.089     9.505   -48.387     1.824    0.171E-03    0.244E-05
  8.300     2.111     9.493   -48.214     1.838    0.167E-03    0.231E-05
  8.350     2.134     9.481   -48.042     1.851    0.163E-03    0.220E-05
  8.400     2.157     9.469   -47.872     1.865    0.159E-03    0.209E-05
  8.450     2.180     9.456   -47.702     1.879    0.155E-03    0.198E-05
  8.500     2.203     9.444   -47.533     1.892    0.152E-03    0.188E-05
  8.550     2.226     9.432   -47.365     1.906    0.148E-03    0.179E-05
  8.600     2.249     9.419   -47.198     1.920    0.145E-03    0.170E-05
  8.650     2.272     9.407   -47.031     1.934    0.141E-03    0.162E-05
  8.700     2.296     9.395   -46.866     1.947    0.138E-03    0.154E-05
  8.750     2.319     9.382   -46.702     1.961    0.135E-03    0.146E-05
  8.800     2.342     9.370   -46.538     1.975    0.132E-03    0.139E-05
  8.850     2.366     9.357   -46.375     1.989    0.129E-03    0.132E-05
  8.900     2.389     9.345   -46.213     2.003    0.126E-03    0.126E-05
  8.950     2.413     9.332   -46.052     2.017    0.123E-03    0.120E-05
  9.000     2.437     9.320   -45.892     2.030    0.121E-03    0.114E-05
  9.050     2.460     9.307   -45.733     2.044    0.118E-03    0.109E-05
  9.100     2.484     9.294   -45.574     2.058    0.115E-03    0.103E-05
  9.150     2.508     9.281   -45.417     2.072    0.113E-03    0.984E-06
  9.200     2.532     9.269   -45.260     2.086    0.110E-03    0.938E-06
  9.250     2.556     9.256   -45.104     2.100    0.108E-03    0.893E-06
  9.300     2.580     9.243   -44.949     2.114    0.106E-03    0.851E-06
  9.350     2.604     9.230   -44.795     2.128    0.103E-03    0.811E-06
  9.400     2.628     9.217   -44.641     2.142    0.101E-03    0.774E-06
  9.450     2.653     9.204   -44.489     2.157    0.991E-04    0.738E-06
  9.500     2.677     9.191   -44.337     2.171    0.971E-04    0.703E-06
  9.550     2.701     9.179   -44.186     2.185    0.951E-04    0.671E-06
  9.600     2.726     9.165   -44.035     2.199    0.931E-04    0.640E-06
  9.650     2.750     9.152   -43.886     2.213    0.912E-04    0.611E-06
  9.700     2.775     9.139   -43.737     2.227    0.893E-04    0.583E-06
  9.750     2.799     9.126   -43.590     2.242    0.875E-04    0.556E-06
  9.800     2.824     9.113   -43.443     2.256    0.857E-04    0.531E-06
  9.850     2.849     9.100   -43.296     2.270    0.840E-04    0.507E-06
  9.900     2.873     9.087   -43.151     2.284    0.823E-04    0.484E-06
  9.950     2.898     9.074   -43.006     2.299    0.806E-04    0.462E-06
 10.000     2.923     9.060   -42.862     2.313    0.790E-04    0.441E-06
 10.050     2.948     9.047   -42.719     2.327    0.775E-04    0.421E-06
 10.100     2.973     9.034   -42.577     2.342    0.760E-04    0.403E-06
 10.150     2.998     9.020   -42.435     2.356    0.745E-04    0.385E-06
 10.200     3.023     9.007   -42.294     2.370    0.730E-04    0.368E-06
 10.250     3.048     8.994   -42.154     2.385    0.716E-04    0.351E-06
 10.300     3.073     8.980   -42.014     2.399    0.702E-04    0.336E-06
 10.350     3.098     8.967   -41.876     2.413    0.689E-04    0.321E-06
 10.400     3.124     8.953   -41.738     2.428    0.676E-04    0.307E-06
 10.450     3.149     8.940   -41.600     2.442    0.663E-04    0.294E-06
 10.500     3.174     8.926   -41.464     2.457    0.650E-04    0.281E-06
 10.550     3.200     8.913   -41.328     2.471    0.638E-04    0.269E-06
 10.600     3.225     8.899   -41.193     2.486    0.626E-04    0.258E-06
 10.650     3.250     8.886   -41.059     2.500    0.614E-04    0.247E-06
 10.700     3.276     8.872   -40.925     2.515    0.603E-04    0.237E-06
 10.750     3.301     8.859   -40.792     2.529    0.592E-04    0.227E-06
 10.800     3.327     8.845   -40.660     2.544    0.581E-04    0.218E-06
 10.850     3.353     8.831   -40.528     2.558    0.570E-04    0.209E-06
 10.900     3.378     8.818   -40.398     2.573    0.560E-04    0.200E-06
 10.950     3.404     8.804   -40.267     2.587    0.550E-04    0.192E-06
 11.000     3.430     8.790   -40.138     2.602    0.540E-04    0.184E-06
 11.050     3.455     8.777   -40.009     2.617    0.530E-04    0.177E-06
 11.100     3.481     8.763   -39.881     2.631    0.520E-04    0.170E-06
 11.150     3.507     8.749   -39.753     2.646    0.511E-04    0.163E-06
 11.200     3.533     8.735   -39.627     2.660    0.502E-04    0.157E-06
 11.250     3.559     8.722   -39.501     2.675    0.493E-04    0.150E-06
 11.300     3.585     8.708   -39.375     2.690    0.484E-04    0.144E-06
 11.350     3.611     8.694   -39.250     2.704    0.476E-04    0.139E-06
 11.400     3.637     8.680   -39.126     2.719    0.468E-04    0.133E-06
 11.450     3.663     8.666   -39.003     2.734    0.460E-04    0.128E-06
 11.500     3.689     8.652   -38.880     2.748    0.452E-04    0.123E-06
 11.550     3.715     8.638   -38.758     2.763    0.444E-04    0.118E-06
 11.600     3.741     8.625   -38.636     2.778    0.436E-04    0.114E-06
 11.650     3.767     8.611   -38.515     2.792    0.429E-04    0.109E-06
 11.700     3.793     8.597   -38.395     2.807    0.421E-04    0.105E-06
 11.750     3.819     8.583   -38.275     2.822    0.414E-04    0.101E-06
 11.800     3.845     8.569   -38.156     2.836    0.407E-04    0.973E-07
 11.850     3.872     8.555   -38.037     2.851    0.400E-04    0.936E-07
 11.900     3.898     8.541   -37.920     2.866    0.394E-04    0.900E-07
 11.950     3.924     8.527   -37.802     2.880    0.387E-04    0.866E-07
 12.000     3.950     8.513   -37.686     2.895    0.381E-04    0.834E-07
 12.050     3.977     8.499   -37.570     2.910    0.374E-04    0.802E-07
 12.100     4.003     8.485   -37.454     2.925    0.368E-04    0.773E-07
 12.150     4.029     8.471   -37.339     2.939    0.362E-04    0.744E-07
 12.200     4.056     8.457   -37.225     2.954    0.356E-04    0.716E-07
 12.250     4.082     8.443   -37.111     2.969    0.351E-04    0.690E-07
 12.300     4.109     8.429   -36.998     2.984    0.345E-04    0.664E-07
 12.350     4.135     8.414   -36.886     2.998    0.339E-04    0.640E-07
 12.400     4.161     8.400   -36.774     3.013    0.334E-04    0.617E-07
 12.450     4.188     8.386   -36.662     3.028    0.329E-04    0.594E-07
 12.500     4.214     8.372   -36.552     3.043    0.323E-04    0.573E-07
 12.550     4.241     8.358   -36.441     3.057    0.318E-04    0.552E-07
 12.600     4.267     8.344   -36.332     3.072    0.313E-04    0.532E-07
 12.650     4.294     8.330   -36.223     3.087    0.308E-04    0.513E-07
 12.700     4.320     8.316   -36.114     3.102    0.303E-04    0.494E-07
 12.750     4.347     8.302   -36.006     3.117    0.299E-04    0.477E-07
 12.800     4.373     8.287   -35.899     3.131    0.294E-04    0.460E-07
 12.850     4.400     8.273   -35.792     3.146    0.289E-04    0.443E-07
 12.900     4.427     8.259   -35.685     3.161    0.285E-04    0.428E-07
 12.950     4.453     8.245   -35.579     3.176    0.281E-04    0.413E-07
 13.000     4.480     8.231   -35.474     3.190    0.276E-04    0.398E-07
 13.050     4.506     8.217   -35.369     3.205    0.272E-04    0.384E-07
 13.100     4.533     8.202   -35.265     3.220    0.268E-04    0.371E-07
 13.150     4.560     8.188   -35.161     3.235    0.264E-04    0.358E-07
 13.200     4.586     8.174   -35.058     3.250    0.260E-04    0.345E-07
 13.250     4.613     8.160   -34.955     3.264    0.256E-04    0.333E-07
 13.300     4.640     8.146   -34.853     3.279    0.252E-04    0.322E-07
 13.350     4.666     8.131   -34.752     3.294    0.248E-04    0.311E-07
 13.400     4.693     8.117   -34.650     3.309    0.245E-04    0.300E-07
 13.450     4.719     8.103   -34.550     3.323    0.241E-04    0.290E-07
 13.500     4.746     8.089   -34.450     3.338    0.237E-04    0.280E-07
 13.550     4.773     8.075   -34.350     3.353    0.234E-04    0.270E-07
 13.600     4.799     8.060   -34.251     3.368    0.231E-04    0.261E-07
 13.650     4.826     8.046   -34.152     3.382    0.227E-04    0.252E-07
 13.700     4.853     8.032   -34.054     3.397    0.224E-04    0.244E-07
 13.750     4.879     8.018   -33.956     3.412    0.221E-04    0.236E-07
 13.800     4.906     8.004   -33.859     3.427    0.217E-04    0.228E-07
 13.850     4.933     7.989   -33.762     3.441    0.214E-04    0.220E-07
 13.900     4.959     7.975   -33.666     3.456    0.211E-04    0.213E-07
 13.950     4.986     7.961   -33.570     3.471    0.208E-04    0.206E-07
 14.000     5.013     7.947   -33.475     3.485    0.205E-04    0.199E-07
 14.050     5.039     7.933   -33.380     3.500    0.202E-04    0.193E-07
 14.100     5.066     7.918   -33.286     3.515    0.199E-04    0.186E-07
 14.150     5.093     7.904   -33.192     3.530    0.197E-04    0.180E-07
 14.200     5.119     7.890   -33.098     3.544    0.194E-04    0.174E-07
 14.250     5.146     7.876   -33.005     3.559    0.191E-04    0.169E-07
 14.300     5.173     7.861   -32.913     3.574    0.189E-04    0.163E-07
 14.350     5.199     7.847   -32.820     3.588    0.186E-04    0.158E-07
 14.400     5.226     7.833   -32.729     3.603    0.183E-04    0.153E-07
 14.450     5.253     7.819   -32.638     3.618    0.181E-04    0.148E-07
 14.500     5.279     7.805   -32.547     3.632    0.178E-04    0.143E-07
 14.550     5.306     7.791   -32.456     3.647    0.176E-04    0.139E-07
 14.600     5.332     7.776   -32.367     3.662    0.173E-04    0.134E-07
 14.650     5.359     7.762   -32.277     3.676    0.171E-04    0.130E-07
 14.700     5.386     7.748   -32.188     3.691    0.169E-04    0.126E-07
 14.750     5.412     7.734   -32.099     3.705    0.166E-04    0.122E-07
 14.800     5.439     7.720   -32.011     3.720    0.164E-04    0.118E-07
 14.850     5.465     7.706   -31.923     3.735    0.162E-04    0.114E-07
 14.900     5.492     7.691   -31.836     3.749    0.160E-04    0.111E-07
 14.950     5.518     7.677   -31.749     3.764    0.158E-04    0.108E-07
 15.000     5.545     7.663   -31.663     3.778    0.156E-04    0.104E-07
 15.050     5.572     7.649   -31.577     3.793    0.154E-04    0.101E-07
 15.100     5.598     7.635   -31.491     3.808    0.152E-04    0.979E-08
 15.150     5.625     7.621   -31.406     3.822    0.150E-04    0.949E-08
 15.200     5.651     7.607   -31.321     3.837    0.148E-04    0.921E-08
 15.250     5.677     7.593   -31.236     3.851    0.146E-04    0.893E-08
 15.300     5.704     7.578   -31.152     3.866    0.144E-04    0.866E-08
 15.350     5.730     7.564   -31.068     3.880    0.142E-04    0.840E-08
 15.400     5.757     7.550   -30.985     3.895    0.140E-04    0.815E-08
 15.450     5.783     7.536   -30.902     3.909    0.138E-04    0.791E-08
 15.500     5.810     7.522   -30.820     3.924    0.136E-04    0.767E-08
 15.550     5.836     7.508   -30.738     3.938    0.135E-04    0.745E-08
 15.600     5.862     7.494   -30.656     3.952    0.133E-04    0.723E-08
 15.650     5.889     7.480   -30.574     3.967    0.131E-04    0.702E-08
 15.700     5.915     7.466   -30.493     3.981    0.130E-04    0.681E-08
 15.750     5.941     7.452   -30.413     3.996    0.128E-04    0.661E-08
 15.800     5.968     7.438   -30.333     4.010    0.126E-04    0.642E-08
 15.850     5.994     7.424   -30.253     4.024    0.125E-04    0.624E-08
 15.900     6.020     7.410   -30.173     4.039    0.123E-04    0.582E-08
 15.950     6.046     7.396   -30.094     4.053    0.122E-04    0.565E-08
 16.000     6.073     7.382   -30.015     4.068    0.120E-04    0.549E-08
 16.050     6.099     7.368   -29.937     4.082    0.119E-04    0.533E-08
 16.100     6.125     7.354   -29.859     4.096    0.117E-04    0.518E-08
 16.150     6.151     7.340   -29.781     4.111    0.116E-04    0.504E-08
 16.200     6.177     7.326   -29.704     4.125    0.114E-04    0.489E-08
 16.250     6.204     7.312   -29.627     4.139    0.113E-04    0.476E-08
 16.300     6.230     7.298   -29.550     4.153    0.111E-04    0.462E-08
 16.350     6.256     7.284   -29.474     4.168    0.110E-04    0.449E-08
 16.400     6.282     7.270   -29.398     4.182    0.109E-04    0.437E-08
 16.450     6.308     7.257   -29.323     4.196    0.107E-04    0.425E-08
 16.500     6.334     7.243   -29.247     4.210    0.106E-04    0.413E-08
 16.550     6.360     7.229   -29.173     4.224    0.105E-04    0.402E-08
 16.600     6.386     7.215   -29.098     4.239    0.104E-04    0.391E-08
 16.650     6.412     7.201   -29.024     4.253    0.102E-04    0.380E-08
 16.700     6.438     7.187   -28.950     4.267    0.101E-04    0.370E-08
 16.750     6.464     7.174   -28.876     4.281    0.100E-04    0.360E-08
 16.800     6.489     7.160   -28.803     4.295    0.988E-05    0.350E-08
 16.850     6.515     7.146   -28.730     4.309    0.976E-05    0.341E-08
 16.900     6.541     7.132   -28.658     4.323    0.964E-05    0.332E-08
 16.950     6.567     7.119   -28.586     4.337    0.953E-05    0.323E-08
 17.000     6.593     7.105   -28.514     4.351    0.942E-05    0.314E-08
 17.050     6.618     7.091   -28.442     4.365    0.931E-05    0.306E-08
 17.100     6.644     7.077   -28.371     4.379    0.920E-05    0.298E-08
 17.150     6.670     7.064   -28.300     4.393    0.909E-05    0.290E-08
 17.200     6.695     7.050   -28.229     4.407    0.899E-05    0.282E-08
 17.250     6.721     7.036   -28.159     4.421    0.888E-05    0.275E-08
 17.300     6.747     7.023   -28.089     4.435    0.878E-05    0.268E-08
 17.350     6.772     7.009   -28.019     4.449    0.868E-05    0.261E-08
 17.400     6.798     6.995   -27.950     4.463    0.858E-05    0.254E-08
 17.450     6.823     6.982   -27.881     4.477    0.848E-05    0.247E-08
 17.500     6.849     6.968   -27.812     4.491    0.838E-05    0.241E-08
 17.550     6.874     6.955   -27.744     4.505    0.829E-05    0.235E-08
 17.600     6.900     6.941   -27.676     4.519    0.819E-05    0.229E-08
 17.650     6.925     6.928   -27.608     4.533    0.810E-05    0.223E-08
 17.700     6.951     6.914   -27.540     4.546    0.801E-05    0.217E-08
 17.750     6.976     6.901   -27.473     4.560    0.792E-05    0.212E-08
 17.800     7.001     6.887   -27.406     4.574    0.783E-05    0.206E-08
 17.850     7.027     6.874   -27.339     4.588    0.774E-05    0.201E-08
 17.900     7.052     6.860   -27.273     4.601    0.766E-05    0.196E-08
 17.950     7.077     6.847   -27.207     4.615    0.757E-05    0.191E-08
 18.000     7.102     6.833   -27.141     4.629    0.749E-05    0.187E-08
 18.050     7.127     6.820   -27.075     4.643    0.740E-05    0.182E-08
 18.100     7.153     6.806   -27.010     4.656    0.732E-05    0.177E-08
 18.150     7.178     6.793   -26.945     4.670    0.724E-05    0.173E-08
 18.200     7.203     6.780   -26.880     4.683    0.716E-05    0.169E-08
 18.250     7.228     6.766   -26.816     4.697    0.708E-05    0.165E-08
 18.300     7.253     6.753   -26.752     4.711    0.701E-05    0.161E-08
 18.350     7.278     6.740   -26.688     4.724    0.693E-05    0.157E-08
 18.400     7.303     6.726   -26.624     4.738    0.685E-05    0.153E-08
 18.450     7.328     6.713   -26.561     4.751    0.678E-05    0.149E-08
 18.500     7.352     6.700   -26.498     4.765    0.671E-05    0.146E-08
 18.550     7.377     6.687   -26.435     4.778    0.663E-05    0.142E-08
 18.600     7.402     6.673   -26.373     4.792    0.656E-05    0.139E-08
 18.650     7.427     6.660   -26.310     4.805    0.649E-05    0.135E-08
 18.700     7.452     6.647   -26.248     4.819    0.642E-05    0.132E-08
 18.750     7.476     6.634   -26.187     4.832    0.635E-05    0.129E-08
 18.800     7.501     6.621   -26.125     4.846    0.629E-05    0.126E-08
 18.850     7.526     6.608   -26.064     4.859    0.622E-05    0.123E-08
 18.900     7.550     6.595   -26.003     4.872    0.615E-05    0.120E-08
 18.950     7.575     6.581   -25.942     4.886    0.609E-05    0.117E-08
 19.000     7.599     6.568   -25.882     4.899    0.602E-05    0.115E-08
 19.050     7.624     6.555   -25.822     4.912    0.596E-05    0.112E-08
 19.100     7.648     6.542   -25.762     4.925    0.590E-05    0.109E-08
 19.150     7.673     6.529   -25.702     4.939    0.584E-05    0.107E-08
 19.200     7.697     6.516   -25.643     4.952    0.578E-05    0.104E-08
 19.250     7.721     6.503   -25.583     4.965    0.572E-05    0.102E-08
 19.300     7.746     6.490   -25.524     4.978    0.566E-05    0.997E-09
 19.350     7.770     6.477   -25.466     4.991    0.560E-05    0.975E-09
 19.400     7.794     6.464   -25.407     5.005    0.554E-05    0.952E-09
 19.450     7.819     6.452   -25.349     5.018    0.548E-05    0.931E-09
 19.500     7.843     6.439   -25.291     5.031    0.543E-05    0.910E-09
 19.550     7.867     6.426   -25.233     5.044    0.537E-05    0.890E-09
 19.600     7.891     6.413   -25.176     5.057    0.532E-05    0.870E-09
 19.650     7.915     6.400   -25.119     5.070    0.526E-05    0.850E-09
 19.700     7.939     6.387   -25.062     5.083    0.521E-05    0.831E-09
 19.750     7.963     6.375   -25.005     5.096    0.516E-05    0.813E-09
 19.800     7.987     6.362   -24.948     5.109    0.510E-05    0.795E-09
 19.850     8.011     6.349   -24.892     5.122    0.505E-05    0.777E-09
 19.900     8.035     6.336   -24.836     5.135    0.500E-05    0.760E-09
 19.950     8.059     6.324   -24.780     5.148    0.495E-05    0.744E-09
 20.000     8.082     6.311   -24.724     5.161    0.490E-05    0.728E-09
 20.050     8.106     6.298   -24.669     5.174    0.485E-05    0.712E-09
 20.100     8.130     6.286   -24.614     5.186    0.480E-05    0.696E-09
 20.150     8.154     6.273   -24.559     5.199    0.476E-05    0.681E-09
 20.200     8.177     6.260   -24.504     5.212    0.471E-05    0.667E-09
 20.250     8.201     6.248   -24.449     5.225    0.466E-05    0.652E-09
 20.300     8.224     6.235   -24.395     5.238    0.462E-05    0.638E-09
 20.350     8.248     6.223   -24.341     5.250    0.457E-05    0.625E-09
